970,970,972,970,973,977,977,977,976,977,979,977,978,980,984,985,985,991,993,998,998,998,1000,1000,1003,1000,1004,1009,1015,1016,1017,1016,1020,1024,1024,1024,1025,1027,1030,1031,1035,1031,1037,1036,1034,1033,1035,1037,1037,1033,1027,1023,1021,1020,1016,1006,1003,1007,1009,1005,1004,1004,1003,995,990,987,985,985,987,988,986,983,981,980,980,980,980,982,980,979,978,975,974,975,977,978,977,973,969,972,973,973,972,971,975,976,981,979,977,975,973,972,974,974,972,970,971,976,981,980,975,973,973,978,978,975,972,971,975,977,980,978,976,976,978,977,974,971,971,971,974,974,973,972,977,979,981,981,978,971,968,968,972,978,978,975,972,971,973,975,974,973,969,967,967,969,970,967,967,971,975,978,973,969,970,974,977,979,979,980,978,973,973,978,980,981,982,978,978,980,987,994,998,1000,1001,1007,1011,1006,999,1000,1013,1024,1024,1015,1007,999,998,1000,1004,1009,1006,995,987,981,978,977,979,981,982,982,983,984,983,973,960,952,962,982,995,988,981,978,978,976,972,971,976,981,984,980,970,965,968,979,1006,1042,1091,1150,1222,1289,1319,1291,1231,1167,1108,1065,1038,1034,1029,1021,1016,1018,1016,1005,993,980,974,977,985,995,993,982,974,967,964,968,974,979,987,989,988,982,978,976,986,995,1001,1001,996,992,986,982,975,967,966,976,991,1002,998,990,984,984,993,1002,1009,1016,1013,1011,1000,991,985,989,1006,1028,1047,1044,1029,1004,980,969,977,996,1016,1017,1003,987,976,982,1009,1047,1067,1045,1006,976,974,1006,1055,1074,1054,1016,993,994,1003,1010,1031,1067,1094,1086,1052,1013,1006,1044,1092,1116,1108,1079,1038,1009,1006,1028,1054,1064,1061,1050,1029,1014,1017,1040,1066,1067,1040,998,971,975,995,1014,1020,1006,988,996,1021,1036,1033,1029,1019,997,966,959,970,995,1019,1032,1022,1004,987,973,964,980,1008,1015,989,964,974,1009,1023,1004,971,953,956,975,996,1003,999,985,974,972,972,984,1007,1019,1020,999,970,950,943,950,964,980,995,1007,997,970,951,958,976,979,976,980,985,990,989,990,984,967,952,945,951,969,988,996,988,977,971,967,957,946,947,961,981,991,986,967,950,946,955,967,978,989,998,996,981,963,954,954,960,963,967,979,992,1002,1007,1006,1007,1007,1006,1006,1003,998,999,1002,1002,996,984,979,983,989,989,986,979,973,966,965,965,962,960,961,961,964,964,963,964,964,965,964,960,958,961,961,963,964,963,957,949,942,939,945,959,979,1014,1058,1117,1188,1252,1286,1265,1204,1135,1087,1053,1032,1014,985,964,964,974,977,972,970,967,964,965,961,956,947,945,943,948,949,950,951,952,952,954,956,955,952,948,948,949,951,959,956,953,954,954,957,956,954,955,957,956,952,949,944,947,953,955,957,954,955,955,957,955,954,951,951,953,954,954,956,957,959,960,963,965,963,960,954,956,962,971,972,970,968,969,965,971,976,979,982,982,982,986,988,990,991,995,995,996,997,996,994,996,1002,1007,1006,1004,999,999,1004,1006,1005,1001,1000,996,994,992,991,989,983,975,974,974,974,970,967,964,967,969,966,965,957,954,957,964,967,965,958,952,953,958,962,963,961,959,955,963,965,964,960,959,959,962,959,959,956,959,962,969,966,962,959,962,965,969,972,973,970,966,970,973,969,963,963,965,966,970,971,967,967,966,966,965,966,967,964,967,970,975,969,965,963,962,961,964,963,966,966,965,966,969,967,966,962,961,963,966,968,967,970,969,972,974,971,969,970,970,971,975,978,980,985,989,996,1002,1006,1006,1002,997,998,1002,997,993,992,988,989,990,984,984,981,976,972,974,971,966,966,963,963,965,963,961,960,957,958,960,960,962,958,955,953,959,961,961,954,952,946,942,940,945,968,1010,1064,1123,1194,1250,1271,1242,1181,1120,1069,1028,1007,986,969,963,965,965,960,957,954,950,945,943,941,939,941,943,946,943,940,938,940,944,943,943,939,937,940,938,938,938,939,940,939,940,941,941,938,939,940,943,942,940,938,940,942,944,942,941,939,939,939,942,940,939,939,942,944,943,941,942,941,943,945,952,952,951,950,950,951,952,953,954,956,954,958,963,965,964,965,965,968,973,975,976,977,978,983,988,986,987,989,991,995,995,997,995,993,993,996,999,999,999,994,993,989,990,986,985,982,980,982,983,978,971,968,965,968,970,970,969,962,961,962,962,962,960,958,958,958,959,960,959,956,956,955,959,960,958,955,954,956,963,963,960,957,957,960,965,963,964,962,958,963,965,961,962,961,961,965,968,968,965,965,964,968,968,968,966,966,965,968,970,969,967,964,964,964,966,966,966,964,961,964,966,969,965,963,961,962,966,966,967,964,963,965,967,966,965,965,964,965,968,970,969,968,968,969,971,972,973,974,972,976,977,977,977,982,988,991,1000,1004,1003,1001,996,994,997,998,995,991,985,987,988,988,984,983,982,982,977,972,968,964,966,965,966,966,962,959,960,960,964,966,965,960,960,961,962,962,961,960,957,956,955,949,943,941,945,967,1007,1056,1107,1167,1224,1264,1260,1208,1150,1098,1053,1021,1008,996,982,974,975,971,966,964,958,951,945,947,947,944,944,943,942,943,944,944,945,944,938,941,945,946,945,943,943,941,944,942,941,942,941,943,946,945,943,941,940,943,945,945,944,943,943,946,947,946,945,945,942,943,947,948,945,944,942,946,947,948,947,947,949,953,958,960,956,955,954,957,961,960,960,963,965,969,971,974,974,975,977,981,984,984,985,986,988,990,997,998,1000,999,1001,1005,1006,1002,1002,1003,1006,1008,1007,1005,1001,1000,998,999,999,995,991,984,983,981,984,981,975,972,969,970,971,969,966,966,963,963,966,966,962,958,957,961,964,964,960,958,958,961,960,961,958,956,957,957,959,958,958,960,960,961,960,961,961,960,961,963,962,961,962,965,961,962,964,963,962,964,962,964,964,964,967,964,965,966,967,964,967,965,963,964,968,971,968,967,965,966,967,967,964,965,965,969,968,969,967,967,965,966,967,969,966,964,965,966,966,968,966,965,966,967,970,969,968,965,967,970,974,973,973,971,971,971,977,976,976,980,985,993,1000,1002,1004,1004,1000,1003,1003,1000,997,990,990,990,992,992,989,987,980,976,975,972,971,969,967,966,966,966,965,963,960,960,964,964,964,963,959,959,962,961,959,959,957,958,955,950,950,954,976,1014,1062,1115,1179,1237,1267,1245,1187,1127,1075,1031,1013,1008,1003,996,989,984,977,971,964,956,949,947,946,947,947,947,946,945,944,944,945,945,946,945,941,941,948,946,946,944,944,946,946,945,943,942,943,945,948,946,946,948,945,946,949,949,947,942,941,947,950,950,943,944,944,948,949,951,952,949,947,951,953,954,953,953,954,959,958,958,963,963,963,964,966,969,971,969,972,973,979,982,983,983,987,990,994,994,995,995,996,999,1003,1004,1005,1005,1004,1005,1003,1007,1006,1003,999,997,997,995,990,987,983,982,983,982,974,972,970,972,973,970,967,964,961,963,966,967,965,960,961,963,962,961,957,956,956,960,960,961,959,954,955,957,957,957,957,955,954,955,958,958,960,957,955,953,958,955,959,957,957,958,963,963,960,958,957,956,959,957,958,958,957,955,963,961,959,957,955,958,963,961,958,956,956,956,959,962,960,957,958,958,960,960,957,956,956,960,959,957,957,959,958,957,962,959,958,959,955,956,957,960,958,958,956,958,959,957,962,963,960,959,963,963,964,963,964,964,967,968,965,968,974,981,987,993,995,995,993,996,994,992,990,986,983,985,983,982,977,975,972,969,968,968,963,959,958,957,959,956,953,954,954,956,957,954,949,948,948,950,951,948,948,947,945,947,949,948,946,940,935,939,946,970,1004,1046,1099,1165,1223,1247,1221,1162,1101,1055,1022,1005,997,987,978,977,972,966,958,947,939,935,936,936,936,935,930,933,932,931,929,927,927,931,933,932,929,928,927,929,932,932,929,930,930,931,931,931,931,933,930,930,932,934,932,929,926,929,934,933,931,930,927,932,932,929,929,931,931,935,934,934,935,935,934,934,939,942,940,942,941,943,944,946,949,949,948,951,957,957,958,959,957,960,967,971,972,972,973,978,982,982,983,983,983,989,991,990,991,990,989,990,989,988,987,984,983,984,984,983,977,973,967,967,970,967,965,961,959,960,958,958,957,953,953,954,955,954,952,949,949,950,951,952,950,946,944,948,950,952,952,947,947,949,951,951,950,950,948,950,951,952,950,948,949,952,954,954,953,949,948,948,953,955,953,953,953,954,955,955,954,952,953,953,955,955,956,954,953,954,955,957,957,956,954,955,958,957,956,955,953,950,954,956,955,955,954,955,956,957,955,953,953,954,959,959,958,958,956,957,958,957,957,956,955,953,956,960,962,961,959,962,962,964,961,960,960,963,967,968,968,966,964,967,972,978,983,985,988,993,999,1000,997,994,991,994,995,994,989,988,985,984,986,983,980,976,972,972,971,968,964,962,961,962,961,961,959,959,955,960,961,960,958,958,958,958,958,958,956,955,956,959,960,959,957,951,944,952,975,1008,1050,1095,1148,1204,1245,1243,1201,1149,1101,1061,1028,1014,1002,992,983,986,983,980,973,968,960,954,951,949,949,946,941,944,948,948,945,945,942,941,944,943,946,939,940,945,948,947,946,945,945,946,948,946,948,947,946,951,949,948,947,944,945,946,951,951,950,948,946,947,948,951,952,950,947,948,952,953,956,953,953,953,953,958,958,960,960,962,963,965,965,967,966,969,973,974,976,976,977,978,981,986,987,986,987,989,995,997,995,996,996,1000,1003,1005,1005,1004,1005,1010,1012,1011,1009,1009,1004,1004,1005,1004,1001,998,997,1000,999,996,990,986,986,987,988,984,982,977,975,981,981,978,975,973,971,976,975,977,977,974,974,976,977,974,972,972,970,971,974,971,970,971,971,975,977,974,976,975,972,974,975,978,976,974,972,976,978,977,978,978,973,972,976,978,976,979,978,978,979,977,979,981,980,983,982,984,982,980,979,979,983,983,980,982,982,982,984,984,983,984,983,986,987,988,986,986,982,985,987,988,986,985,983,986,990,990,991,986,985,985,986,987,988,986,986,986,988,990,989,989,990,989,993,995,990,989,991,992,996,1000,999,996,996,998,1004,1011,1015,1022,1024,1027,1027,1024,1022,1021,1017,1014,1015,1015,1014,1011,1006,1008,1010,1010,1006,1001,995,993,994,996,994,991,989,990,990,991,989,984,987,988,989,988,985,984,982,985,991,990,989,985,981,977,974,975,973,978,996,1034,1075,1123,1176,1231,1269,1275,1241,1191,1142,1098,1061,1045,1036,1025,1012,1013,1010,1006,1003,997,987,981,978,980,980,981,975,973,973,972,973,973,972,970,969,974,976,975,973,972,969,970,972,973,974,974,973,974,977,977,976,974,971,972,974,975,974,973,972,974,978,981,978,978,974,977,977,975,975,973,975,978,982,984,981,980,979,978,981,984,987,986,985,986,988,991,993,992,992,994,997,1001,1002,1002,1002,1004,1010,1013,1016,1014,1014,1016,1020,1024,1024,1025,1024,1028,1030,1031,1026,1029,1030,1033,1036,1036,1036,1031,1032,1033,1033,1031,1027,1023,1019,1018,1020,1014,1011,1011,1008,1009,1007,1002,1002,999,997,995,997,1000,998,997,994,992,992,994,994,994,995,995,993,993,992,990,989,989,992,995,992,992,988,991,993,994,992,988,990,989,991,994,996,996,993,988,992,995,998,997,993,993,996,998,996,996,994,994,997,997,997,997,995,995,998,1000,997,995,995,996,999,997,997,996,992,994,995,998,997,995,992,995,998,1001,1001,1000,1000,998,999,995,996,997,997,996,998,999,1001,999,997,996,998,999,999,997,997,998,998,999,1001,1001,1000,1001,1003,1004,1004,1005,1002,1001,1006,1010,1015,1018,1019,1026,1027,1032,1030,1026,1023,1022,1024,1023,1021,1020,1016,1012,1012,1011,1010,1005,1003,1000,1002,998,994,992,988,990,992,992,992,987,983,984,990,990,988,985,982,984,984,986,986,986,984,985,981,976,971,974,973,984,1012,1048,1089,1139,1199,1252,1269,1246,1191,1140,1094,1060,1040,1037,1029,1019,1010,1010,1005,1002,992,984,977,974,977,976,976,973,973,971,972,971,973,973,968,968,968,969,970,970,968,969,967,969,968,968,966,969,970,973,972,970,965,966,969,973,975,971,968,971,968,968,970,968,968,967,969,971,971,970,966,970,973,975,974,974,969,972,975,979,976,975,974,975,978,980,979,980,983,987,990,989,988,988,990,993,997,1000,1000,1000,1000,1005,1009,1010,1010,1011,1011,1015,1017,1019,1021,1021,1021,1020,1022,1023,1026,1024,1022,1022,1021,1019,1020,1018,1014,1011,1009,1009,1007,1003,999,1000,1000,999,994,992,988,987,989,990,989,985,982,982,982,983,982,981,981,983,983,984,982,977,977,979,981,982,979,979,976,979,980,982,981,980,980,978,979,981,983,982,983,981,985,986,987,985,980,979,982,985,986,983,981,983,984,984,985,981,979,979,983,983,984,981,980,980,980,982,978,978,976,981,981,980,979,979,977,980,983,983,982,979,975,977,977,979,980,979,978,979,981,984,981,979,976,977,977,979,976,980,984,985,984,985,986,986,985,985,986,986,991,992,994,1002,1011,1016,1016,1014,1010,1010,1009,1014,1009,1005,1003,1002,1002,1001,997,994,990,988,986,982,977,976,978,976,979,978,978,975,970,973,972,973,970,970,970,972,973,971,969,969,969,968,965,963,960,955,956,963,989,1025,1067,1115,1175,1226,1239,1206,1149,1096,1056,1031,1023,1015,1003,998,993,989,983,977,969,960,954,956,959,959,958,954,950,952,955,955,954,952,949,950,952,952,951,949,949,947,951,952,953,951,948,949,952,953,953,955,949,950,953,955,953,949,948,954,954,955,953,948,949,949,953,954,952,952,952,951,954,960,959,957,954,957,960,963,960,956,952,958,962,966,967,969,969,970,970,973,979,979,976,982,986,989,990,988,988,992,996,999,1000,999,998,1000,1003,1007,1004,1004,998,1000,1002,1001,999,994,990,990,994,993,989,983,979,979,978,975,974,973,968,966,966,971,972,967,967,967,969,966,964,960,963,964,966,966,967,964,962,959,961,966,968,966,963,963,967,967,967,965,964,965,965,969,967,969,968,969,970,970,971,966,967,968,973,973,972,968,968,971,972,972,969,970,971,971,971,974,972,970,968,969,971,972,970,970,965,964,967,971,971,968,966,967,969,972,970,970,969,968,971,970,969,969,965,968,969,970,970,971,967,966,972,974,974,972,972,972,972,976,977,976,972,973,980,987,992,997,1000,1003,1002,1001,997,996,994,994,997,995,991,986,981,984,985,984,980,975,968,967,970,970,966,963,963,965,965,966,965,963,960,959,962,963,962,958,956,957,959,959,958,951,947,953,977,1017,1067,1121,1181,1229,1227,1183,1125,1072,1034,1016,1005,996,992,988,981,974,968,964,957,952,944,947,951,953,951,949,946,945,949,950,951,947,945,946,949,954,954,950,947,945,947,947,949,949,944,945,948,953,953,949,946,947,949,952,951,949,948,947,948,949,949,951,949,950,953,952,950,951,951,954,955,957,958,958,957,957,961,964,962,959,959,963,967,967,969,970,970,974,978,979,979,981,983,986,987,987,990,992,993,994,998,1000,1002,1003,999,1000,1005,1008,1008,1005,1000,997,998,1001,997,992,990,988,989,987,982,975,975,977,976,977,975,972,969,970,972,970,970,968,966,965,968,968,968,969,965,963,963,963,963,964,963,961,964,967,969,965,962,962,964,967,966,965,965,965,964,965,967,966,963,965,968,968,966,966,965,966,970,970,970,968,967,968,969,973,969,967,965,967,971,970,969,970,968,968,969,973,975,973,969,969,968,969,970,972,969,969,971,972,971,969,967,967,968,971,971,968,967,968,970,972,971,971,970,970,972,974,973,975,975,971,973,977,976,975,973,976,982,989,993,995,1000,1001,1002,1001,1000,998,995,993,992,987,986,984,981,982,983,981,975,967,964,966,967,967,964,961,959,960,962,963,960,958,955,956,958,958,956,955,955,955,957,952,948,945,942,953,983,1027,1079,1136,1193,1229,1221,1172,1116,1062,1024,1007,1001,992,986,982,973,967,960,956,949,945,944,942,944,945,945,941,938,941,940,943,940,938,937,940,944,944,942,941,939,941,941,941,942,943,941,941,939,942,944,944,943,941,940,941,942,940,939,944,944,945,943,942,941,939,944,946,949,945,943,946,945,944,950,953,952,953,954,955,958,956,954,957,962,964,968,968,969,973,976,977,980,980,981,983,986,990,991,991,992,996,998,1000,998,997,994,996,1000,1004,1001,998,995,992,991,991,985,982,980,979,977,977,975,969,966,964,964,963,963,962,958,959,959,961,961,961,957,956,957,955,958,956,953,957,956,958,956,958,955,955,956,955,957,957,955,954,955,956,953,955,953,954,958,956,958,958,958,961,961,961,959,956,952,958,959,963,963,962,958,957,960,961,961,962,961,961,962,962,962,961,960,959
