970,973,975,976,976,975,974,977,979,977,978,975,975,976,978,979,980,981,983,988,993,995,995,995,991,996,999,1001,1003,999,998,998,999,997,993,993,992,992,993,994,998,999,998,993,990,988,986,982,975,977,978,976,973,972,972,971,973,974,973,970,969,969,970,973,971,971,969,969,970,973,972,971,966,964,962,952,945,941,932,926,931,947,977,1014,1049,1096,1157,1212,1250,1268,1255,1204,1118,1027,964,947,955,968,975,977,975,975,970,971,973,973,971,966,964,965,963,962,963,963,960,962,964,963,962,962,959,959,962,964,963,963,960,962,964,966,965,964,964,963,965,967,965,963,962,964,963,963,963,962,960,960,963,964,964,962,962,960,964,965,965,964,963,963,965,968,966,962,963,963,966,966,965,963,960,962,962,961,961,960,958,958,961,962,960,958,957,959,962,961,960,960,958,958,960,961,962,962,962,963,968,970,969,970,972,975,978,979,979,981,979,982,983,985,986,984,986,986,987,991,991,989,986,985,986,985,984,984,983,985,986,986,984,983,982,984,985,986,982,983,982,981,985,984,985,982,981,982,984,985,983,980,978,979,976,977,976,976,975,976,976,977,975,974,975,977,977,981,979,976,976,977,978,979,976,976,974,973,976,975,976,975,975,974,975,978,976,974,973,978,979,981,979,977,978,978,978,980,980,979,976,977,978,978,977,977,975,977,980,983,983,986,986,989,990,991,993,991,993,996,998,1001,1002,1002,1000,1000,1000,999,999,997,995,996,995,996,994,993,990,988,995,1002,1003,995,987,984,981,980,978,974,971,972,971,973,974,973,970,971,972,972,971,968,969,969,971,971,969,967,964,966,966,968,967,967,964,962,960,952,944,938,928,921,920,938,963,995,1026,1068,1120,1177,1220,1244,1243,1208,1138,1051,979,943,939,949,960,962,965,963,959,962,963,964,963,961,961,962,961,963,963,958,957,959,960,962,961,960,958,958,959,962,959,958,955,958,959,960,960,959,958,956,957,962,960,962,957,959,961,961,958,958,959,957,959,959,960,956,955,957,959,958,959,956,955,954,957,955,957,957,955,958,959,962,962,960,956,958,959,958,959,956,955,955,955,954,954,954,951,950,953,953,954,954,953,954,955,955,956,954,949,950,953,956,955,954,954,956,960,962,962,963,963,967,970,971,970,966,968,970,972,971,974,975,973,972,974,977,979,976,976,975,979,978,977,976,972,973,974,973,973,969,968,972,971,972,972,969,966,969,969,971,971,971,970,970,971,969,967,965,965,965,964,966,965,963,961,963,964,965,965,962,959,960,961,963,963,959,960,958,960,959,958,956,958,961,962,965,967,962,959,958,961,962,961,959,959,960,960,961,961,956,956,955,958,959,960,958,957,958,959,961,960,959,958,961,962,967,969,973,970,975,975,975,974,971,970,972,974,976,977,976,975,978,980,982,981,977,975,975,976,978,978,975,973,976,977,982,983,978,969,966,967,963,960,956,955,955,957,958,955,954,953,952,950,953,952,951,949,949,953,953,953,953,951,953,953,954,954,954,950,946,943,939,934,932,929,924,914,905,906,916,934,960,991,1024,1071,1121,1165,1198,1215,1199,1144,1067,992,947,931,931,933,937,937,937,943,946,945,945,944,944,944,942,944,941,939,941,941,943,940,939,941,943,944,942,944,941,939,940,938,940,940,938,936,937,939,940,940,939,939,941,943,944,943,943,940,941,945,944,941,940,934,934,938,938,941,938,936,939,938,938,936,934,935,937,939,938,941,939,935,937,939,943,943,943,942,941,941,941,938,935,933,934,934,936,934,930,929,930,927,929,928,925,923,923,927,929,927,923,922,927,930,931,934,935,935,939,945,947,947,946,946,949,948,951,954,957,955,958,959,959,959,957,956,960,962,965,966,964,961,963,965,967,967,966,965,966,965,964,962,959,957,959,960,961,963,959,957,957,962,962,963,962,957,958,960,962,963,960,953,955,954,955,956,955,953,953,956,953,955,953,954,953,958,957,956,954,952,954,957,955,954,951,949,951,951,953,952,953,953,953,958,959,958,955,953,955,956,960,960,958,955,957,956,958,957,956,953,954,955,956,954,953,954,957,960,962,962,962,965,965,971,971,973,972,974,975,977,978,979,979,976,977,978,979,977,975,970,972,973,975,972,972,968,968,971,978,978,978,971,967,967,966,961,959,956,956,954,956,956,954,952,951,956,955,954,952,950,950,954,952,952,951,951,952,953,953,953,950,947,943,937,933,930,927,921,915,911,917,937,965,999,1036,1079,1132,1180,1212,1231,1228,1194,1123,1037,971,938,931,933,937,942,944,945,943,946,947,947,946,943,945,945,948,947,947,944,946,950,951,951,948,947,949,950,949,949,945,946,948,949,949,950,948,946,945,946,947,949,945,946,948,950,950,952,949,945,947,950,951,951,950,950,949,952,951,951,949,947,950,950,951,950,948,947,949,949,950,948,948,946,947,947,951,951,952,947,949,949,951,946,948,946,946,944,945,944,941,939,939,940,940,940,939,937,938,940,942,943,943,941,942,946,948,949,948,948,954,958,961,963,962,965,965,969,969,971,970,967,971,973,974,975,974,973,975,975,978,976,974,972,976,975,974,973,975,973,974,975,976,976,975,971,971,972,974,972,973,969,971,975,973,971,971,968,971,972,973,971,972,969,971,972,973,970,968,969,970,971,971,970,970,968,966,967,967,968,966,963,965,969,968,967,964,962,964,966,969,968,969,965,968,969,970,969,969,967,966,968,971,970,969,968,968,970,971,969,972,966,969,971,972,972,970,969,971,973,975,977,977,978,981,983,984,985,984,983,986,990,991,992,992,989,991,991,990,989,987,987,988,988,989,988,988,992,993,992,986,983,978,975,972,971,970,969,968,964,968,969,971,970,968,966,966,969,969,970,967,967,967,966,968,969,966,965,965,969,967,965,963,961,962,959,954,943,936,931,924,922,936,960,994,1030,1074,1132,1193,1242,1267,1260,1221,1144,1051,977,944,944,955,963,967,962,959,957,958,959,958,958,957,955,956,957,957,957,957,953,956,957,959,958,958,956,955,956,958,959,956,956,954,957,956,954,954,953,954,955,960,958,956,953,956,956,959,962,959,958,959,960,961,959,958,956,956,958,957,955,956,955,955,960,960,961,956,954,956,958,960,956,957,953,956,953,957,956,953,950,953,953,958,956,954,950,951,953,955,955,952,952,952,952,953,957,955,954,957,960,963,963,963,965,968,971,974,976,976,976,975,978,978,979,978,975,976,978,978,978,979,974,978,978,981,980,977,978,977,979,980,982,980,978,979,981,982,981,977,977,978,980,980,981,980,975,975,975,974,973,972,971,972,972,975,973,972,969,969,972,971,971,969,968,968,971,974,971,970,968,969,970,971,969,967,965,967,968,968,967,967,965,965,966,969,967,967,965,968,969,969,970,969,967,969,971,972,974,971,967,969,971,972,971,973,973,973,977,981,984,984,981,983,986,990,990,990,988,990,995,995,991,989,989,991,993,992,991,988,986,987,987,991,992,997,992,987,985,982,978,974,968,967,967,969,969,966,966,965,966,966,968,967,964,966,968,970,969,967,966,965,966,968,967,965,962,955,949,941,939,933,924,919,930,956,989,1024,1065,1127,1187,1234,1252,1238,1174,1082,999,952,938,945,955,961,964,962,960,960,957,958,958,958,959,956,955,956,960,961,963,960,957,957,958,958,959,958,956,957,959,959,957,956,952,955,956,957,955,956,955,954,955,958,956,957,955,957,957,958,959,957,957,955,958,957,960,959,955,954,956,959,957,956,956,957,956,959,958,955,955,957,958,957,958,956,955,955,957,955,954,950,949,950,950,952,951,950,949,950,950,953,954,953,951,954,955,960,963,962,962,963,967,969,970,972,969,971,969,973,975,975,973,970,975,973,972,972,974,975,975,979,976,976,973,975,977,977,976,974,971,969,970,971,970,970,964,969,971,973,970,968,967,967,971,974,969,968,966,966,965,966,966,961,958,962,963,965,965,963,961,962,964,964,964,961,959,962,962,965,964,964,964,961,963,965,965,963,957,961,962,964,965,964,963,963,966,965,964,962,960,961,964,965,967,967,966,973,977,978,978,973,975,980,985,987,989,989,984,983,983,983,980,981,976,975,976,977,976,978,977,980,980,976,969,967,962,959,961,961,958,957,955,956,956,958,959,954,951,952,952,952,954,955,953,951,954,958,958,955,952,953,953,954,946,940,935,934,929,920,913,915,929,956,989,1028,1075,1127,1178,1214,1222,1192,1119,1032,965,935,932,940,946,948,948,950,955,954,954,949,950,950,953,950,950,948,946,948,949,949,946,944,943,944,946,949,952,951,948,949,949,951,948,947,949,949,949,950,948,948,946,947,950,950,946,947,946,946,947,947,948,945,944,946,948,948,947,946,948,950,952,952,950,949,947,947,952,949,951,948,947,948,947,949,945,941,937,939,939,940,939,940,936,936,937,937,939,937,935,933,935,938,937,936,936,935,940,944,945,948,949,951,955,957,958,959,958,965,968,971,971,968,969,972,972,973,971,969,968,970,972,972,970,970,966,970,971,972,973,967,965,968,971,971,971,969,970,970,972,974,973,970,967,966,970,969,970,968,965,964,966,967,964,965,964,964,965,967,967,966,963,962,965,963,968,966,961,963,965,968,969,966,963,966,967,965,965,964,965,962,966,969,968,965,964,966,970,972,972,970,967,968,971,972,969,970,967,968,970,971,970,968,970,969,974,978,979,981,978,978,982,983,986,984,984,985,989,990,989,986,985,983,986,989,988,985,981,982,986,992,994,987,979,974,972,971,968,966,964,961,965,965,966,965,960,961,961,964,963,963,958,962,964,967,967,966,965,965,964,966,965,963,961,959,957,953,944,937,930,926,921,928,948,978,1012,1056,1108,1166,1214,1241,1244,1210,1131,1035,962,935,938,950,960,962,962,959,956,957,957,958,958,957,955,957,956,958,958,958,956,958,960,959,959,960,958,957,957,958,959,953,955,954,958,959,958,956,954,953,955,958,957,958,953,956,958,961,960,957,956,958,959,960,959,958,954,957,958,958,958,956,952,955,958,959,960,956,954,955,958,958,958,957,954,955,956,957,954,954,949,951,954,951,951,952,949,950,954,956,956,953,951,952,954,958,957,958,960,962,965,970,971,971,970,975,975,978,977,977,976,978,981,982,983,983,982,981,981,983,982,982,979,977,981,981,982,979,977,980,981,982,981,980,979,980,980,980,981,977,975,977,978,981,981,979,977,976,979,979,978,974,973,973,975,976,975,975,971,970,974,972,973,972,970,970,971,971,973,971,969,970,972,974,973,972,971,974,975,974,973,972,970,967,971,974,973,972,969,970,972,974,974,974,969,970,974,977,979,979,980,983,987,990,992,990,989,992,995,997,998,997,994,995,995,995,994,991,987,990,994,993,992,990,989,995,1000,1006,1005,999,994,990,987,987,985,980,978,975,975,974,972,972,969,970,971,972,972,972,968,967,969,969,971,968,966,966,970,969,970,967,966,962,956,947,941,938,927,924,934,959,989,1024,1061,1109,1171,1223,1257,1267,1242,1174,1082,1000,955,945,956,967,972,971,970,966,965,965,965,968,965,963,959,961,961,961,963,961,957,960,960,963,961,960,959,960,962,961,962,964,961,961,962,963,966,963,961,962,961,963,962,959,956,959,961,963,961,961,959,960,958,962,964,961,959,960,963,964,965,963,961,963,962,962,962,959,955,957,959,965,960,958,959,958,959,961,960,958,955,957,958,959,961,958,956,957,957,960,959,957,955,955,958,962,961,960,961,962,967,968,971,970,971,972,976,978,979,979,978,979,981,982,983,980,980,979,977,979,982,978,978,978,978,982,981,976,974,975,976,980,978,977,975,974,979,980,977,977,974,975,973,977,975,974,972,972,971,972,972,968,967,968,967,970,970,971,966,967,969,971,972,968,967,967,968,970,969,968,963,963,966,967,968,965,962,963,966,967,969,968,966,966,966,968,964,965,962,963,965,966,968,964,964,965,966,969,969,970,969,973,975,981,981,981,981,982,984,988,989,987,986,985,985,985,985,982,979,978,981,984,983,979,978,980,991,994,994,990,984,981,979,978,974,970,969,965,964,962,960,961,958,960,961,961,963,963,960,958,958,961,961,959,958,959,961,965,963,962,959,956,957,954,943,934,930,925,918,918,925,944,972,1010,1049,1100,1156,1200,1228,1239,1219,1163,1073,991,943,929,935,942,949,956,955,956,955,956,955,955,952,955,953,954,952,951,948,950,949,951,948,949,949,949,950,952,951,949,947,948,949,950,949,949,949,948,952,954,955,952,949,946,950,951,953,951,946,949,950,951,950,950,948,948,950,953,953,950,948,949,950,952,955,951,951,952,954,953,951,948,947,947,949,952,952,950,947,948,949,951,950,946,943,942,944,946,947,945,945,945,946,948,947,946,944,943,945,947,945,946,946,947,949,954,956,956,954,956,961,965,966,967,966,966,969,972,971,968,966,969,969,973,972,970,968,967,971,972,971,968,967,968,967,967,967,965,963,960,963,968,968,964,964,962,961,963,963,962,958,958,960,960,961,958,955,956,956,960,959,957,956,956,959,962,959,955,954,955,956,957,955,952,949,951,955,957,957,955,951,954,956,956,955,953,947,948,952,955,954,952,952,952,954,955,955,955,953,954,954,957,955,955,956,960,965,967,964,963,964,966,968,974,975,973,975,976,980,981,979,976,974,975,978,980,979,976,969,965,966,969,972,976,974,975,973,970,967,959,956,956,955,956,955,954,949,947,951,953,954,952,949,947,949,951,952,948,949,949,951,953,950,949,946,946,943,947,945,943,937,930,928,924,919,906,898,898,913,930,951,972,994,1028,1077,1129,1172,1205,1216,1193,1136,1057,987,945,928,927,932,937,940,940,939,941,942,941,939,939,936,940,942,944,944,944,941,942,946,946,946,945,942,940,940,942,941,941,940,939,939,940,941,940,938,939,942,944,944,941,938,938,942,941,944,944,942,940,941,942,943,940,939,939,940,941,940,939,937,937,935,938,939,939,937,939,942,943,940,940,936,935,939,942,941,938,935,932,936,938,937,935,934,933,930,932,930,929,926,926,927,930,928,925,925,929,929,929,932,931,934,937,940,945,945,945,946,944,951,955,957,958,958,958,962,964,963,965,964,963,965,967,966,965,960,962,963,966,962,962,961,961,965,965,964,963,962,960,963,963,964,962,960,959,961,961,961,959,956,954,958,958,958,956,957,955,955,957,958,957,952,950,951,953,948,947,941,936,934,929,923,922,914,899,865,813,754,687,626,581,546,519,500,485,481,486,499,517,540,572,614,663,708,753,794,837,875,908,937,958,970,975,978,983,993,1002,1011,1012,1015,1017,1023,1028,1032,1034,1037,1041,1048,1052,1053,1053,1050,1050,1053,1057,1059,1062,1064,1067,1070,1074,1077,1082,1082,1079,1076,1077,1075,1075,1073,1072,1076,1078,1080,1081,1079,1083,1089,1093,1096,1098,1100,1103,1107,1114,1120,1121,1125,1133,1141,1146,1153,1156,1160,1166,1172,1180,1186,1190,1190,1198,1201,1210,1212,1211,1211,1211,1214,1216,1215,1215,1213,1213,1216,1213,1211,1205,1196,1188,1181,1175,1165,1155,1141,1131,1119,1108,1098,1084,1074,1062,1053,1044,1035,1028,1020,1015,1010,1008,1001,996,989,987,984,982,979,977,973,972,971,974,972,969,967,971,970,971,971,970,968,969,969,972,972,969,968,968,968,971,970,968,965,968,967,967,967,967,965,965,965,968,966,964,961,960,962,965,963,961,959,960,961,963,962,960,957,958,961,961,958,956,954,953,957,958,956,954,951,952,954,956,954,953,952,951,953,956,956,955,955,953,956,958,957,954,952,954,956,956,956,952,951,951,953,953,952,951,949,947,952,954,950,952,950,950,952,955,953,952,952,951,953,953,953,952,950,948,950,953,951,950,949,949,951,952,951,950,949,950,951,954,953,952,952,950,952,955,953,952,947,951,953,953,952,951,951,950,951,955,954,950,950,951,949,952,951,950,950,948,953,954,954,950,951,949,952,952,950,950,948,950,951,952,953,951,951,950,951,954,953,953,951,951,953,955,955,954,954,952,954,954,954,953,950,949,952,954,954,954,951,951,954,957,956,956,954,955,962,964,967,964,964,964,967,970,971,971,974,973,976,976,975,974,972,971,969,970,971,970,967,965,969,974,977,973,966,962,961,962,958,955,952,950,950,952,950,950,950,950,951,952,949,949,945,944,948,949,949,945,945,945,947,947,947,945,943,943,940,935,926,920,917,909,908,913,936,964,1003,1042,1090,1147,1197,1235
