1001,1004,999,1003,1000,1002,1000,1000,1000,999,1000,999,1000,1005,1005,1002,1003,1002,1005,1003,1003,1001,1000,1004,1004,1006,1006,1004,1006,1004,1001,1003,1001,1002,1004,1005,1004,1007,1006,1007,1005,1005,1002,1002,1001,1001,1002,1003,1004,1007,1006,1007,1005,1005,1004,1004,1003,1003,1004,1006,1007,1008,1008,1010,1007,1007,1007,1005,1005,1005,1004,1007,1008,1009,1011,1011,1006,1008,1008,1007,1006,1005,1006,1006,1008,1009,1008,1011,1011,1011,1009,1007,1004,1004,1007,1010,1010,1013,1013,1011,1011,1009,1008,1005,1005,1007,1008,1009,1011,1012,1011,1010,1009,1010,1010,1009,1007,1005,1009,1007,1010,1011,1010,1010,1009,1007,1007,1005,1006,1008,1007,1009,1010,1011,1010,1010,1010,1008,1009,1008,1008,1007,1006,1011,1011,1015,1014,1015,1014,1012,1010,1009,1008,1007,1008,1009,1011,1010,1015,1014,1016,1014,1010,1011,1008,1009,1012,1016,1015,1020,1022,1022,1021,1024,1023,1022,1023,1027,1027,1034,1039,1046,1045,1051,1051,1047,1048,1044,1041,1036,1033,1032,1031,1029,1027,1024,1020,1018,1014,1010,1005,1005,1006,1004,1008,1008,1008,1006,1007,1002,1002,1001,999,1001,1002,1002,1001,1003,1003,1001,1002,1001,1000,998,996,991,985,974,960,954,964,992,1043,1111,1190,1264,1333,1375,1373,1324,1240,1147,1074,1030,1014,1015,1019,1024,1030,1024,1015,1007,1000,997,995,993,993,990,989,986,984,981,981,980,982,986,987,987,986,985,983,983,985,985,984,987,986,985,984,985,985,980,982,984,982,983,983,984,985,988,988,989,985,985,988,984,986,986,986,988,989,992,992,993,992,995,993,992,991,990,988,990,995,997,1000,1000,1001,1000,1000,998,997,998,999,1002,1004,1006,1005,1009,1010,1009,1010,1010,1015,1016,1020,1022,1024,1026,1026,1026,1028,1030,1032,1033,1034,1034,1038,1039,1044,1046,1049,1052,1055,1056,1058,1061,1063,1066,1068,1069,1068,1073,1071,1073,1076,1077,1075,1076,1075,1078,1080,1082,1086,1090,1091,1090,1090,1088,1089,1084,1086,1084,1086,1087,1085,1085,1080,1076,1072,1070,1065,1064,1061,1056,1052,1050,1046,1045,1046,1043,1040,1036,1031,1030,1024,1019,1018,1016,1015,1015,1017,1015,1012,1009,1010,1008,1008,1008,1009,1012,1012,1013,1013,1013,1012,1008,1003,1004,1005,1005,1006,1006,1005,1008,1010,1005,1009,1006,1006,1008,1012,1010,1008,1010,1010,1010,1009,1007,1008,1007,1010,1013,1013,1013,1010,1013,1014,1016,1015,1016,1016,1015,1015,1015,1013,1014,1015,1020,1027,1034,1039,1043,1045,1042,1039,1035,1031,1029,1027,1023,1025,1026,1027,1026,1023,1021,1016,1011,1003,997,995,991,990,994,994,997,995,994,993,989,987,986,987,986,989,991,995,993,992,987,983,981,977,978,977,980,984,982,983,984,983,984,985,982,981,984,985,985,988,986,984,982,982,986,983,984,982,982,982,988,987,986,988,986,986,985,984,986,985,987,989,988,987,985,983,979,983,984,982,982,981,983,985,983,984,982,983,984,984,983,983,981,978,980,982,985,987,989,989,986,984,981,982,979,979,979,979,978,981,982,982,980,980,977,980,980,978,979,979,981,982,980,984,986,988,985,985,986,981,981,982,983,983,983,983,983,987,986,987,988,986,985,985,987,988,988,988,987,988,985,985,984,984,984,983,985,985,987,986,989,988,986,985,986,987,986,984,986,987,989,991,990,990,988,988,987,984,988,989,989,991,990,991,988,988,989,989,988,986,987,988,989,989,992,989,988,991,990,989,990,988,988,988,989,990,992,992,992,990,991,989,990,986,988,987,989,989,991,990,990,991,992,989,987,986,986,989,989,988,989,991,990,992,990,989,988,988,988,989,989,989,992,993,993,993,992,991,988,989,989,987,989,990,992,994,993,993,993,991,989,990,989,990,992,991,990,994,994,993,991,992,989,990,990,990,991,993,994,994,995,993,992,991,988,987,987,988,990,990,990,994,991,993,992,990,990,989,993,994,994,999,1004,1005,1007,1007,1006,1007,1009,1012,1016,1021,1027,1029,1031,1031,1029,1023,1022,1021,1016,1012,1010,1008,1005,1003,1002,997,993,990,988,986,984,982,984,984,983,982,984,986,983,983,983,982,981,979,980,979,982,982,986,986,985,983,975,968,954,937,932,937,964,1013,1080,1158,1238,1309,1355,1361,1318,1240,1149,1072,1024,1002,998,1005,1010,1015,1011,1001,992,984,979,981,982,983,984,984,980,979,977,976,973,972,972,972,973,975,974,973,972,971,972,970,968,968,969,968,969,972,974,975,977,976,973,971,972,971,973,970,972,973,976,978,977,978,973,972,970,974,972,973,974,974,979,979,980,978,979,979,978,976,974,976,979,980,982,983,983,981,980,982,981,981,984,983,984,987,990,990,992,992,992,991,991,993,993,995,997,997,1001,1003,1004,1006,1006,1007,1006,1008,1011,1010,1015,1016,1021,1023,1024,1023,1024,1027,1026,1028,1031,1030,1034,1039,1041,1043,1042,1045,1047,1047,1047,1047,1048,1050,1051,1055,1059,1062,1061,1065,1064,1061,1063,1061,1063,1064,1062,1063,1065,1064,1061,1060,1058,1054,1050,1048,1045,1041,1038,1036,1035,1034,1030,1026,1024,1019,1014,1011,1006,1006,1007,1009,1008,1006,1006,1003,1000,999,997,998,996,997,997,997,1000,999,1002,1000,998,998,995,994,994,995,995,997,999,1001,999,998,998,996,995,994,993,994,997,997,998,998,998,996,993,992,989,992,990,992,994,992,997,998,996,997,995,995,997,995,997,1000,1002,1003,1004,1006,1006,1009,1010,1013,1016,1018,1021,1023,1023,1024,1022,1018,1016,1013,1008,1006,1002,997,994,992,986,983,983,982,982,980,977,976,975,973,973,973,973,973,972,973,971,972,971,970,969,969,970,968,969,969,973,972,971,972,970,970,968,968,967,968,969,968,970,972,971,973,970,969,969,968,968,969,971,971,972,973,973,973,972,969,969,968,969,966,967,967,968,972,970,972,971,972,970,967,970,967,967,971,973,970,970,969,966,968,968,966,965,967,968,969,972,973,974,973,973,970,970,969,971,971,972,971,973,975,974,975,974,974,973,973,973,973,975,975,976,977,977,976,975,976,976,975,973,975,973,973,978,977,977,978,978,976,976,973,973,974,976,976,978,980,978,979,977,977,976,975,975,977,976,978,978,978,979,978,976,977,976,976,974,976,976,977,980,980,980,979,977,978,977,977,975,976,978,980,980,982,981,979,979,976,975,975,978,978,981,981,983,983,981,983,980,979,978,978,979,979,982,979,980,984,981,984,983,979,977,978,976,979,980,980,983,984,983,982,983,983,981,979,980,979,983,981,982,984,984,981,981,981,979,976,978,979,981,980,985,986,984,987,986,985,980,982,982,983,984,983,985,987,986,985,983,985,985,983,982,982,979,984,986,986,986,988,987,987,987,985,987,985,983,986,987,989,989,990,991,992,991,992,992,997,999,1003,1008,1010,1011,1013,1019,1022,1023,1023,1022,1022,1019,1017,1018,1018,1015,1014,1010,1007,1004,998,994,990,987,985,984,983,980,978,978,977,974,972,970,971,974,973,976,979,978,978,976,976,976,975,976,975,975,974,972,969,961,948,938,922,923,937,978,1038,1113,1193,1269,1328,1362,1356,1302,1211,1116,1037,994,976,978,985,994,999,998,990,981,972,965,963,964,966,966,965,965,965,963,964,963,962,960,960,957,956,957,958,959,960,958,959,957,960,961,960,959,962,963,963,965,966,966,963,961,960,961,959,957,958,960,962,964,965,966,967,967,964,965,963,964,964,965,965,968,971,969,969,967,968,967,971,972,975,980,982,984,984,981,980,981,981,982,982,984,986,988,990,991,995,995,998,1001,999,1001,1001,1003,1003,1006,1007,1010,1013,1015,1016,1019,1021,1023,1025,1029,1031,1032,1034,1035,1042,1043,1045,1048,1051,1050,1049,1050,1050,1052,1056,1059,1061,1062,1063,1061,1061,1060,1062,1065,1064,1066,1068,1071,1069,1066,1062,1060,1055,1052,1048,1048,1046,1041,1041,1039,1038,1031,1025,1020,1017,1014,1009,1012,1014,1013,1007,1005,1001,1001,996,993,990,991,986,984,982,981,980,982,980,979,979,983,982,979,979,980,981,980,981,981,982,981,984,982,981,979,982,982,979,982,982,985,984,985,983,984,985,985,986,984,983,984,984,981,982,983,988,989,991,996,996,997,994,995,997,999,1001,1002,1008,1007,1011,1009,1009,1008,1009,1010,1014,1013,1017,1014,1012,1006,1000,994,990,986,985,984,979,975,970,969,966,966,966,969,965,964,964,962,966,970,969,971,966,962,958,955,955,956,958,959,961,962,964,963,963,964,965,962,961,957,956,957,959,961,965,967,965,962,961,960,958,960,959,962,965,966,965,962,961,958,959,959,960,961,961,962,962,963,965,963,963,964,965,965,961,959,958,959,961,963,962,962,962,962,959,958,957,960,959,961,960,962,961,960,960,961,961,960,960,961,961,961,963,964,966,964,963,963,961,960,958,962,959,963,964,967,967,965,966,967,965,963,964,960,961,964,961,963,964,964,962,962,963,963,959,963,962,963,962,963,964,965,965,965,963,964,964,962,964,963,964,966,965,967,969,965,964,965,961,962,966,967,969,968,971,969,970,970,966,967,968,967,966,968,969,967,970,971,971,969,966,967,966,966,965,965,967,968,970,971,973,969,968,968,968,968,967,970,971,971,972,971,970,970,969,968,970,969,969,970,970,970,973,973,971,971,969,965,964,966,968,971,971,972,972,973,972,970,971,969,967,971,969,972,973,973,973,972,973,972,971,970,966,966,969,971,971,972,973,974,973,970,970,969,967,965,965,967,968,973,971,969,974,968,969,968,967,969,970,971,972,974,977,976,974,973,972,973,971,974,977,979,977,981,984,984,989,990,988,990,990,994,996,1002,1008,1014,1017,1016,1015,1012,1008,1005,1000,1000,998,995,994,990,991,987,981,976,974,971,967,966,968,968,968,969,972,972,971,969,968,965,965,963,964,967,966,968,968,966,967,964,961,953,940,928,915,917,936,980,1046,1124,1209,1286,1339,1352,1309,1226,1130,1053,1003,984,977,980,990,992,987,978,970,962,960,959,962,964,963,958,956,956,952,951,950,950,952,954,952,951,954,953,955,954,953,952,949,951,952,952,953,955,954,954,955,954,952,952,951,951,951,953,952,955,956,957,956,958,955,954,955,953,954,955,956,958,959,959,958,961,962,961,961,960,961,962,964,966,968,968,969,967,969,968,968,969,968,971,973,975,976,976,978,979,978,978,978,979,981,982,986,988,991,991,994,992,994,994,992,995,999,1002,1006,1007,1011,1011,1012,1013,1015,1016,1017,1018,1020,1024,1025,1029,1033,1031,1033,1034,1034,1036,1036,1038,1040,1042,1042,1046,1048,1051,1053,1052,1051,1051,1048,1045,1045,1046,1047,1045,1044,1041,1041,1035,1032,1027,1023,1021,1015,1015,1012,1010,1011,1008,1005,1003,997,996,992,988,988,987,987,986,984,984,982,982,980,979,977,976,977,974,977,978,980,978,979,977,975,974,973,972,972,975,975,976,976,977,978,977,976,974,975,973,972,975,976,979,978,976,978,978,975,974,971,975,974,977,979,980,983,985,986,987,989,988,987,988,989,996,999,1002,1006,1008,1009,1008,1000,998,995,994,991,990,986,982,979,977,969,962,958,961,955,956,956,955,954,956,956,958,956,954,955,952,951,951,951,954,954,955,953,954,953,955,956,954,951,949,950,952,953,952,957,957,956,955,954,955,953,950,950,952,953,955,955,957,957,957,955,955,955,951,949,952,955,954,956,954,957,954,952,954,953,953,953,950,955,954,958,958,958,957,959,956,956,954,955,956,957,958,961,960,961,960,958,956,954,957,957,958,959,961,961,960,960,960,960,958,958,957,958,959,959,962,963,962,960,962,959,957,957,956,957,958,958,960,961,960,960,960,959,958,956,957,958,960,960,962,962,961,963,965,963,962,960,961,959,956,960,962,964,964,964,966,963,962,960,957,957,961,964,963,966,965,964,965,965,963,962,964,964,965,965,965,966,966,966,965,966,966,965,966,968,966,965,967,964,965,966,964,965,966,965,966,968,970,971,971,973,971,969,967,967,966,967,966,965,967,968,965,968,967,969,970,969,972,969,969,968,967,969,971,972,972,972,973,973,970,968,967,967,966,966,968,972,973,972,973,971,970,969,968,970,972,973,973,972,972,972,972,971,968,968,969,968,968,967,967,969,973,977,979,979,976,973,971,966,972,972,973,974,975,976,976,976,977,975,977,980,982,980,984,985,986,990,992,992,998,1000,1007,1011,1014,1014,1012,1010,1008,1006,1003,999,996,992,988,985,984,983,980,978,975,972,970,966,965,967,966,969,970,969,970,973,968,970,969,966,964,965,967,967,968,969,970,970,969,969,966,960,951,938,926,923,939,970,1023,1091,1167,1241,1301,1334,1327,1279,1195,1100,1023,979,964,963,970,976,977,978,971,963,959,954,957,960,962,964,963,962,964,962,958,959,960,958,957,955,954,955,958,960,961,961,958,954,953,953,956,958,962,963,962,960,959,956,957,955,957,956,955,958,959,963,961,960,961,960,961,958,960,959,960,960,963,966,967,964,963,961,957,954,955,957,963,968,969,970,969,967,966,969,969,969,969,972,974,974,979,979,981,979,977,978,978,978,980,985,986,991,991,991,993,995,997,998,1000,998,999,999,1001,1001,1006,1009,1013,1015,1017,1021,1020,1020,1022,1024,1028,1029,1032,1036,1039,1040,1041,1040,1041,1042,1047,1049,1052,1052,1053,1053,1056,1059,1061,1062,1064,1063,1060,1060,1061,1063,1067,1068,1066,1065,1062,1061,1057,1053,1052,1048,1047,1043,1042,1037,1035,1031,1027,1022,1018,1013,1010,1006,1003,1001,999,996,996,992,992,986,982,979,979,978,979,979,980,981,978,980,978,975,975,974,974,976,976,978,979,980,979,979,978,979,975,974,977,977,981,982,982,980,982,982,981,981,980,982,983,982,983,985,988,992,994,995,992,994,994,993,997,1000,1005,1009,1011,1009,1009,1004,1002,997,996,993,989,987,983,981,975,974,971,967,964,960,959,958,958,955,955,954,958,957,957,957,956,952,953,950,946,947,948,948,949,950,952,950,949,950,946,946,947,950,948,949,950,950,951,951,951,951,948,948,947,948,949,950,952,953,953,953,951,950,950,947,948,948,947,949,949,952,947,949,948,949,951,949,946,948,946,949,950,953,950,949,950,950,949,947,948,946,947,951,950,949,949,949,950,947,946,945,945,948,945,949,948,951,951,951,950,949,950,946,946,948,953,952,955,956,955,957,955,952,951,954,953,952,951,953,955,955,956,957,955,954,954,954,953,952,953,957,957,958,956,958,958,957,954,955,954,956,956,958,958,959,958,960,958,957,957,957,956,957,958,961,962,962,962,962,961,960,958,957,960,957,958,959,959,964,963,960,961,959,959,958,959,960,962,960,962,964,963,964,963,963,964,963,962,961,962,961,964,966,965,965,965,962,961,960,959,959,962,962,964,967,967,967,966,965,961,961,963,962,966,965,968,969,967,968,966,967,964,962,961,964,965,965,966,967,967,967,967,967,967,966,963,962,964,965,966,968,969,967,967,967,967,964,965,965,966,967,968,969,968,968,968,967,966,965,963,965,970,969,970,971,972,974,972,974,975,975,974,977,980,981,984,985,987,990,993,994,996,999,1002,1007,1007,1004,1006,1003,1001,998,995,992,989,986,983,981,978,976,973,973,970,968,968,966,963,962,962,962,963,962,965,964,962,964,964,963,963,960,961,960,961,962,961,963,960,955,943,927,916,913,927,963,1029,1109,1193,1272,1329,1350,1320,1247,1154,1069,1011,982,976,980,989,992,991,983,974,966,958,956,955,954,954,952,952,952,949,949,946,944,944,943,944,941,941,943,944,946,946,947,945,945,943,943,942,942,939,944,945,947,946,946,946,945,944,942,941,942,944,944,944,948,947,949,949,945,945,946,947,945,947,948,949,953,952,952,952,951,950,949,950,949,954,952,956,958,957,957,957,959,960,959,959,961,964,965,967,968,967,971,971,973,972,972,973,974,975,979,981,983,985,986,988,991,990,991,993,996,999,1004,1009,1012,1011,1014,1016,1016,1016,1015,1015,1016,1022,1023,1027,1031,1032,1032,1035,1035,1034,1032,1033,1033,1037,1040,1039,1040,1038,1040,1039,1036,1038,1034,1035,1033,1032,1031,1031,1031,1027,1024,1021,1018,1018,1014,1012,1008,1008,1006,1001,1000,997,994,990,989,987,981,980,976,974,975,979,979,978,980,976,972,971,971,970,969,969,969,969,970,972,970,970,971,970,970,966,965,969,968,971,973,973,974,974,972,972,972,969,971,972,970,969,971,971,970,969,969,967,965,963,963,965,969,972,975,975,976,973,971,969,968,971,973,978,978,980,982,981,982,982,986,988,993,997,998,999,998,999,997,994,993,990,985,981,977,974,968,965,958,957,958,957,956,956,954,952,950,947,944,944,947,945,946,947,947,947,944,945,946,946,948,949,950,954,953,952,950,949,947,945,944,943,946,943,947,949,950,950,950,950,949,950,948,947,947,945,949,948,950,952,952,950,950,948,946,945,946,947,948,949,951,950,949,950,952,950,950,951,948,952,952,948,950,950,951,952,952,950,949,948,949,950,952,955,956,956,954,954,952,951,947,949,951,952,953,955,956,953,952,955,954,955,956,955,953,954,956,956,956,956,958,957,955,953,953,951,951,953,956,960,960,957,958,956,956,955,952,952,953,955
