1053,1053,1052,1050,1044,1039,1038,1038,1039,1033,1031,1026,1027,1031,1028,1027,1023,1021,1022,1023,1026,1023,1020,1016,1018,1023,1025,1024,1023,1020,1021,1022,1028,1026,1027,1023,1025,1029,1032,1033,1031,1031,1034,1038,1040,1042,1044,1042,1045,1054,1059,1063,1066,1071,1077,1089,1101,1108,1115,1120,1133,1143,1154,1163,1171,1180,1192,1206,1217,1229,1236,1245,1253,1265,1273,1275,1276,1273,1269,1265,1256,1243,1219,1183,1141,1100,1075,1055,1040,1023,1011,1002,993,986,974,965,957,959,957,951,943,938,937,936,935,938,932,930,931,934,932,930,928,926,928,928,928,927,919,919,918,917,920,914,910,909,909,910,911,907,904,900,899,899,901,899,896,892,891,893,893,889,885,883,883,884,885,886,883,883,878,882,886,886,884,884,887,893,896,895,896,899,903,908,912,916,916,914,917,924,930,932,930,932,936,940,941,943,943,941,944,947,949,948,945,944,947,947,952,950,947,948,944,948,951,951,947,942,943,947,951,950,947,946,943,946,953,948,947,945,949,951,954,952,951,952,953,955,957,956,954,952,952,955,962,961,961,960,961,962,967,960,965,963,966,969,971,970,968,967,968,970,971,970,969,963,962,967,973,971,969,966,967,967,969,967,964,963,966,967,969,967,964,961,964,962,966,965,963,960,962,964,965,964,958,958,959,961,963,961,960,958,958,960,962,958,960,957,956,959,959,959,956,955,960,960,963,964,959,958,958,960,960,961,958,956,958,958,962,961,957,955,956,960,962,963,958,955,959,957,962,960,959,958,959,962,963,961,960,957,957,961,964,960,961,957,956,961,963,960,961,959,961,964,964,963,963,960,962,963,965,964,962,962,963,964,966,965,966,962,962,966,968,965,962,960,963,965,970,963,962,964,965,969,966,970,966,964,966,968,970,968,965,963,965,968,971,969,968,965,965,970,973,971,968,967,967,972,974,973,972,968,970,973,973,973,969,969,971,973,977,972,971,970,969,974,976,975,971,967,970,974,977,975,974,974,972,974,976,978,975,973,973,977,982,982,976,974,975,976,978,977,975,975,975,975,982,980,979,977,976,981,985,986,981,980,982,983,986,986,983,983,984,988,990,990,987,986,987,988,991,991,987,985,986,991,995,992,992,994,998,1005,1009,1007,1010,1010,1014,1020,1024,1027,1030,1029,1032,1035,1039,1039,1033,1029,1022,1020,1017,1014,1011,1005,1005,1003,1004,1001,999,996,998,1000,1004,1004,1003,1001,999,1005,1010,1012,1008,1010,1020,1036,1065,1100,1136,1166,1186,1199,1205,1197,1178,1145,1097,1043,1006,986,989,992,990,989,990,989,986,980,980,982,982,978,978,972,974,978,980,977,971,966,966,972,972,975,972,969,972,973,973,973,973,973,971,974,978,977,976,973,975,978,979,981,980,979,984,985,989,989,990,991,991,994,999,998,998,1000,999,1003,1009,1010,1011,1013,1014,1020,1021,1025,1026,1028,1032,1038,1043,1043,1047,1047,1053,1057,1063,1067,1067,1068,1068,1075,1080,1082,1082,1075,1082,1086,1088,1085,1083,1080,1079,1082,1084,1080,1075,1070,1070,1067,1068,1063,1058,1051,1049,1047,1045,1041,1034,1029,1028,1025,1023,1022,1019,1011,1011,1013,1012,1006,1002,999,998,999,1000,996,993,991,994,996,997,995,991,987,988,990,991,989,987,987,988,987,992,990,987,985,986,987,991,988,990,990,990,993,996,994,995,992,995,996,1000,997,995,992,994,996,998,998,995,993,992,990,997,996,993,985,988,991,992,990,990,984,985,983,987,985,981,977,978,982,981,979,975,974,974,975,976,975,972,970,972,970,975,973,969,966,965,966,970,967,964,962,962,965,968,967,964,959,961,961,964,963,958,957,961,961,962,960,956,956,955,957,957,956,955,953,956,955,958,958,955,953,953,955,957,956,951,949,952,953,956,955,955,950,954,957,957,953,951,949,951,953,955,956,953,952,951,955,958,958,953,949,951,957,957,957,953,953,950,952,955,955,954,951,953,956,959,955,956,954,955,956,962,960,954,957,955,958,960,960,959,959,958,960,962,964,963,964,968,972,976,979,978,978,981,988,994,997,997,996,999,1004,1006,1003,999,997,993,991,992,989,984,980,978,977,979,974,972,969,971,971,976,975,971,973,972,975,979,982,982,980,981,985,991,999,1009,1029,1061,1102,1138,1160,1174,1175,1174,1164,1144,1107,1056,1000,967,962,970,975,968,964,963,965,967,966,964,960,959,959,960,958,955,952,950,953,958,956,953,949,955,955,959,958,955,955,955,959,961,960,958,956,958,961,963,960,960,958,959,963,965,964,963,965,966,969,969,973,973,970,973,977,983,983,981,981,984,990,991,995,996,996,1000,1005,1012,1012,1013,1015,1019,1024,1029,1030,1030,1032,1034,1041,1045,1046,1048,1048,1054,1057,1061,1066,1064,1065,1065,1068,1073,1069,1067,1066,1064,1061,1066,1066,1063,1056,1053,1052,1052,1047,1041,1037,1032,1028,1029,1025,1018,1015,1011,1011,1008,1007,1001,996,996,996,996,993,986,981,981,982,986,979,976,973,974,974,976,974,969,967,967,968,970,968,963,960,960,962,965,967,965,962,961,963,969,969,964,963,965,969,973,971,968,966,964,969,972,972,973,968,967,971,973,971,972,971,971,973,974,972,970,971,970,971,974,973,971,967,966,973,973,973,970,970,968,968,973,971,965,966,964,968,967,966,964,957,959,960,962,960,958,954,956,958,961,958,956,953,956,957,959,959,955,952,954,954,957,955,948,949,949,953,953,953,952,948,948,949,951,947,948,947,948,950,951,953,949,948,948,950,953,951,948,946,948,947,953,953,950,946,947,946,949,951,948,944,944,948,951,950,946,943,943,945,949,948,948,944,943,948,951,950,949,946,948,949,953,952,948,946,948,948,948,950,949,948,948,950,952,949,949,944,946,949,952,948,949,947,949,951,954,952,953,947,950,954,959,959,952,953,954,955,959,960,957,955,958,958,963,966,963,961,963,968,973,975,974,973,974,984,989,991,992,989,989,987,989,986,983,979,981,978,982,976,971,965,963,969,969,967,962,963,965,967,970,967,964,965,962,970,972,974,971,970,971,981,991,1005,1023,1054,1090,1123,1152,1168,1173,1166,1164,1149,1124,1082,1027,982,963,963,966,963,956,952,952,951,954,951,946,945,942,943,949,944,942,940,938,939,943,942,939,936,939,939,943,944,939,939,937,941,941,941,938,939,937,943,947,946,944,941,942,946,952,952,951,951,951,953,957,958,956,952,956,963,965,967,965,966,966,974,976,981,980,979,985,989,993,997,998,999,1005,1012,1019,1019,1020,1018,1027,1034,1040,1044,1042,1046,1049,1054,1057,1057,1053,1053,1059,1060,1064,1065,1059,1058,1058,1058,1058,1054,1048,1039,1038,1039,1040,1034,1024,1018,1015,1014,1013,1008,1002,995,993,991,990,987,983,976,976,975,978,974,971,967,962,964,964,961,959,955,954,953,957,952,949,947,947,948,949,947,947,942,941,946,947,946,944,941,942,944,948,947,944,943,944,947,950,950,947,944,941,948,952,949,950,947,948,952,954,954,953,951,952,951,957,954,954,953,949,950,953,957,956,953,952,952,958,958,953,952,951,954,954,954,949,950,946,947,950,954,951,948,947,950,951,946,946,944,944,945,946,945,945,942,942,945,947,946,941,940,940,941,944,944,940,937,939,940,943,940,936,934,937,941,944,941,939,936,939,939,942,941,941,938,939,940,938,939,938,938,939,941,941,938,938,935,938,941,944,941,938,938,942,944,946,946,941,939,941,943,946,944,945,944,948,954,956,957,957,955,959,964,971,971,971,970,970,974,975,971,967,964,962,963,964,962,957,952,955,954,954,953,951,950,950,954,958,958,957,957,960,966,968,971,972,975,981,992,1008,1024,1050,1078,1109,1131,1146,1149,1142,1128,1108,1077,1036,986,954,941,945,948,947,946,942,937,941,944,945,945,944,939,936,939,941,942,938,936,936,939,940,942,941,939,938,941,944,943,941,938,938,944,948,947,941,942,943,945,950,948,949,948,949,951,956,955,955,957,958,962,967,967,966,963,969,973,977,979,978,977,981,988,991,992,993,991,996,1001,1007,1010,1011,1011,1015,1021,1026,1029,1029,1033,1040,1046,1052,1051,1053,1051,1054,1057,1063,1064,1063,1060,1058,1060,1061,1056,1052,1050,1046,1046,1044,1041,1034,1027,1025,1024,1022,1016,1008,1006,1001,999,998,991,986,981,978,980,982,979,975,971,967,968,969,966,961,958,956,961,963,960,954,952,951,954,956,956,954,952,954,955,957,957,955,952,957,960,960,963,956,957,957,959,963,965,961,963,963,968,970,968,967,966,965,970,974,973,971,969,973,973,979,975,973,971,973,975,977,978,977,973,972,971,975,973,969,969,970,972,972,974,971,968,970,972,974,971,970,967,965,969,970,972,968,962,963,967,968,967,962,962,963,968,968,967,964,962,962,963,965,964,961,959,960,965,966,967,963,963,962,963,965,963,962,959,961,962,967,966,962,963,964,968,971,972,970,969,973,976,980,980,983,981,982,987,992,993,989,989,993,995,998,995,993,990,991,986,986,981,979,975,974,979,980,978,978,973,974,977,979,979,977,974,978,984,989,990,991,994,1001,1011,1026,1041,1066,1091,1117,1137,1146,1143,1133,1115,1095,1065,1031,992,970,964,967,969,966,965,964,962,964,964,966,969,963,959,960,961,964,963,960,959,961,962,966,962,959,959,959,963,968,967,961,959,963,965,968,969,968,967,970,972,975,977,974,972,973,976,981,979,979,977,980,984,989,988,986,985,988,993,996,997,998,996,1002,1006,1010,1017,1015,1017,1020,1025,1034,1035,1036,1034,1040,1050,1055,1060,1059,1058,1065,1069,1074,1076,1074,1075,1078,1083,1086,1083,1080,1079,1075,1076,1075,1072,1069,1060,1060,1057,1055,1052,1044,1039,1036,1034,1031,1028,1022,1015,1011,1010,1010,1008,1000,994,994,994,995,991,984,982,981,982,984,979,974,970,969,973,972,970,968,967,964,965,968,968,964,962,962,965,966,963,961,961,962,967,970,970,966,965,969,974,974,975,974,971,974,976,980,981,977,974,977,979,982,981,979,977,979,980,982,978,978,975,979,978,982,983,978,976,977,979,979,974,973,973,972,975,977,975,973,966,970,970,974,972,969,966,968,967,967,970,963,962,963,963,964,965,962,961,962,964,965,963,960,954,957,957,961,959,958,956,956,957,961,959,956,954,955,956,959,955,956,955,954,957,958,955,954,951,952,952,953,956,954,950,953,954,956,953,952,950,952,952,954,956,954,948,952,955,957,956,953,951,950,954,958,955,951,947,945,952,958,954,950,951,952,953,955,956,954,951,950,954,959,957,953,954,954,955,958,958,959,956,953,956,958,958,956,951,952,958,959,960,960,958,959,961,960,960,960,961,964,968,970,976,973,973,979,982,988,989,990,986,983,982,985,983,978,977,977,976,975,975,972,969,970,972,974,969,967,964,966,972,976,977,976,972,975,981,986,987,988,992,1006,1030,1066,1098,1126,1147,1164,1175,1173,1166,1144,1114,1073,1032,996,972,969,969,971,968,969,966,964,957,956,957,962,959,955,952,950,954,956,954,953,948,948,953,953,955,955,953,953,954,956,958,955,953,955,957,962,959,958,954,958,961,964,965,959,958,963,966,967,966,969,966,971,974,977,979,978,978,981,986,990,988,988,989,995,1001,1007,1008,1011,1009,1017,1021,1029,1031,1032,1036,1040,1050,1058,1061,1065,1064,1070,1076,1081,1082,1081,1082,1083,1088,1092,1091,1087,1084,1080,1081,1080,1074,1073,1064,1064,1060,1059,1053,1045,1036,1038,1034,1034,1028,1023,1018,1015,1015,1013,1010,1006,1002,1000,1001,999,995,989,985,986,986,990,988,986,979,981,981,983,983,978,976,975,978,981,980,975,969,966,971,975,978,973,970,967,968,972,974,972,972,974,976,979,982,981,979,976,978,983,984,983,980,982,985,991,993,994,997,1003,1007,1016,1019,1023,1027,1036,1047,1064,1079,1092,1102,1108,1115,1113,1106,1093,1077,1053,1023,987,944,911,892,889,891,893,888,878,871,869,869,873,875,876,878,884,890,897,900,904,908,918,923,930,936,936,935,940,946,953,955,955,955,958,959,963,965,961,959,958,963,969,969,966,965,966,971,975,974,975,975,975,981,986,986,987,987,992,999,1008,1010,1008,1001,995,994,1000,1004,1010,1015,1021,1029,1036,1035,1037,1044,1051,1056,1067,1070,1073,1075,1082,1088,1093,1100,1097,1100,1100,1103,1106,1104,1104,1104,1102,1103,1105,1103,1096,1092,1089,1089,1086,1082,1073,1068,1065,1065,1064,1058,1051,1045,1041,1038,1034,1030,1022,1016,1014,1015,1016,1012,1007,1003,1002,1006,1005,1002,998,995,995,1002,1004,1004,1000,997,997,999,1005,1006,1006,1002,1003,1011,1019,1023,1027,1034,1044,1055,1068,1077,1089,1103,1118,1136,1155,1169,1180,1192,1204,1222,1234,1241,1244,1242,1241,1243,1240,1230,1215,1195,1171,1142,1111,1072,1040,1017,1002,992,984,973,959,946,942,937,933,923,912,904,898,900,899,894,884,881,881,877,878,874,871,867,867,871,866,867,865,862,865,865,866,863,857,857,855,855,855,855,849,844,842,842,842,839,834,831,828,827,828,823,821,813,811,810,805,800,797,796,798,802,801,796,795,793,795,798,801,802,801,800,802,809,816,821,825,828,832,838,845,851,849,849,853,862,870,876,878,880,881,887,891,896,897,895,899,904,909,912,910,911,914,914,918,921,918,920,921,921,927,925,924,923,924,928,930,930,928,929,931,933,936,939,939,937,935,937,938,941,941,943,944,949,953,952,948,950,958,963,968,964,964,964,967,972,983,986,991,994,1003,1012,1023,1032,1039,1048,1060,1070,1080,1081,1074,1066,1055,1049,1038,1017,990,961,927,897,883,876,871,869,867,868,870,865,864,861,861,868,872,875,877,885,893,898,906,908,908,912,918,925,931,936,935,937,940,944,951,954,952,953,957,964,970,973,967,968,968,973,973,975,975,975,976,983,987,988,989,990,992,994,996,999,1002,1004,1009,1015,1019,1021,1023,1023,1026,1031,1038,1041,1045,1045,1050,1055,1061,1068,1072,1076,1081,1091,1096,1102,1100,1102,1104,1110,1116,1119,1119,1115,1116,1117,1119,1116,1114,1110,1111,1110,1109,1105,1098,1096,1090,1089,1085,1078,1070,1063,1060,1061,1059,1055,1050,1043,1039,1035,1039,1035,1030,1024,1026,1024,1026,1020,1016,1012,1011,1013,1013,1013,1010,1007,1010,1014,1016,1012,1007,995,990,990,995,993,987,982,983,984,990,989,986,985,986,989,991,991,989,984,987,989,986,987,984,980,983,985,988,986,981,975,975,976,976,975,973,970,970,971,971,972,968,968,971,969,967,968,962,963,962,962,963,957,952,948,947,947,951,950,945,942,942,945,949,953,953,953,955,956,953,956,951,949,949,951,955,950,946,940,941,946,948,946,946,941,940,944,945,946,944,941,941,943,942,943,941,938,941,941,946,944,944,944,945,951,956,950,947,936,932,939,946,946,940,935,932,934,937,937,936,934,936,936,939,939,937,938,937,942,945,948,947,946,946,945,943,938,932,932,934,935,937,938,939,939,944,946,946,945,938,938,939,940,940,942,941,937,937,940,943,942,941,940,941,943,948,945,939,937,937,941,946,946,944,939,939,943,946,943,942,941,941,944,950,950,944,942,941,946,949,947,944,940,940,945,947,941,939,939,941,941,945,947,944,947,946,951,951,950,945,940,940,940,944,942,940,936,939,946,952,954,952,949,947,946,947,948,948,950,951,953,952,951,948,947,948,950,953,952,951,946,952,952,952,956,953,953,952,952,953,953,950,944,941,942,945,950,947,948,945,946,946,947,948,947,946,950,954,952,953,947,949,951,952,951,948,946,945,946,950,949,947,944,945,951,955,954,951,951,949,949,951,952,951,946,946,952,955,957,957,955,955,954,955,954,954,953,953,956,964,967,962,954,951,948,948,949,948,947,947,951,954,957,954,952,953,958,961,958,958,955,955,959,960,962,958,959,961,963,964,961,957,955,955,959,961,963,964,961,963,968,971,971,970,971,975,982,987,989,987,983,988,994,997,993,989,988,989,994,1000,999,999,998,996,997,1000,1000,1000,1000,1009,1022,1048,1076,1106,1133,1158,1172,1180,1178,1169,1149,1127,1095,1055,1014,987,980,984,982,981,976,967,961,961,965,964,960,951,948,946,945,946,942,941,941,942,942,945,946,946,942,938,941,945,942,939,940,941,944,949,946,944,945,943,949,949,947,943,941,944,948,954,950,947,946,944,949,952,955,955,955,956,958,959,955,953,958,959,965,967,969,964,967,970,976,983,985,984,980,983,984,990,992,993,995,999,1004,1009,1013,1014,1015,1019,1021,1026,1030,1030,1030,1035,1039,1046,1046,1045,1042,1043,1048,1051,1052,1051,1048,1047,1050,1051,1048,1041,1036,1035,1035,1037,1032,1028,1023,1023,1022,1024,1018,1016,1011,1005,1005,1005,1000,996,992,990,991,992,988,986,983,980,979,981,975,971,967,967,971,971,970,973,970,972,976,975,972,964,968,972,975,978,978,973,970,971,979,984,984,986,986,987,990,994,996,999,1003,1010,1022,1033,1043,1053,1063,1071,1084,1098,1113,1126,1137,1152,1163,1180,1199,1218,1230,1240,1249,1256,1250,1240,1226,1205,1183,1152,1120,1082,1044,1005,977,973,968,961,952,945,940,939,933,925,920,917,915,915,910,902,898,895,898,899,892,887,882
